Typical Measured Spectrum of Semrock FF614-SDi01 Optical Filter	
For wavelengths between 320 and 1120 nm, values near or below 3e-7 (Optical Density 6.5) are measurement noise limited.
For wavelengths < 320 nm and > 1120 nm, values near or below 3e-6 (Optical Density 5.5) are measurement noise limited. 
Data format:  Wavelength (nm) <tab> Transmission (0 to 1)
235.0	0.1617
235.2	0.16657
235.4	0.17171
235.6	0.18712
235.8	0.20254
236.0	0.21796
236.2	0.23657
236.4	0.25715
236.6	0.27773
236.8	0.29812
237.0	0.31778
237.2	0.33745
237.4	0.35711
237.6	0.36854
237.8	0.37797
238.0	0.38739
238.2	0.39577
238.4	0.40258
238.6	0.40939
238.8	0.41619
239.0	0.43856
239.2	0.461
239.4	0.48345
239.6	0.51979
239.8	0.5658
240.0	0.6118
240.2	0.65124
240.4	0.66176
240.6	0.67228
240.8	0.68281
241.0	0.69428
241.2	0.70603
241.4	0.71778
241.6	0.72935
241.8	0.74063
242.0	0.75191
242.2	0.76319
242.4	0.77012
242.6	0.7769
242.8	0.78369
243.0	0.7875
243.2	0.789
243.4	0.79051
243.6	0.79235
243.8	0.79592
244.0	0.79948
244.2	0.80305
244.4	0.80453
244.6	0.80533
244.8	0.80613
245.0	0.80884
245.2	0.81503
245.4	0.82122
245.6	0.82741
245.8	0.83741
246.0	0.84762
246.2	0.85783
246.4	0.86417
246.6	0.86734
246.8	0.87052
247.0	0.87275
247.2	0.86942
247.4	0.86609
247.6	0.86276
247.8	0.86485
248.0	0.8688
248.2	0.87274
248.4	0.87526
248.6	0.87503
248.8	0.8748
249.0	0.87456
249.2	0.87185
249.4	0.86897
249.6	0.8661
249.8	0.86662
250.0	0.87008
250.2	0.87355
250.4	0.87659
250.6	0.87691
250.8	0.87724
251.0	0.87756
251.2	0.87844
251.4	0.87951
251.6	0.88059
251.8	0.88132
252.0	0.88136
252.2	0.8814
252.4	0.88144
252.6	0.88349
252.8	0.88568
253.0	0.88788
253.2	0.8931
253.4	0.90095
253.6	0.9088
253.8	0.91665
254.0	0.9245
254.2	0.92815
254.4	0.93179
254.6	0.92645
254.8	0.92027
255.0	0.91409
255.2	0.90997
255.4	0.90778
255.6	0.9056
255.8	0.90437
256.0	0.91054
256.2	0.9167
256.4	0.92287
256.6	0.92307
256.8	0.9209
257.0	0.91874
257.2	0.91653
257.4	0.91423
257.6	0.91193
257.8	0.90963
258.0	0.91283
258.2	0.91655
258.4	0.92027
258.6	0.91873
258.8	0.91225
259.0	0.90577
259.2	0.9004
259.4	0.90362
259.6	0.90684
259.8	0.91006
260.0	0.91327
260.2	0.90682
260.4	0.91155
260.6	0.92048
260.8	0.92177
261.0	0.92157
261.2	0.9182
261.4	0.91836
261.6	0.92067
261.8	0.92418
262.0	0.92556
262.2	0.91903
262.4	0.91624
262.6	0.91685
262.8	0.91671
263.0	0.91719
263.2	0.92313
263.4	0.92605
263.6	0.9249
263.8	0.92181
264.0	0.91806
264.2	0.91691
264.4	0.91629
264.6	0.91672
264.8	0.91715
265.0	0.91759
265.2	0.92608
265.4	0.9387
265.6	0.94222
265.8	0.93242
266.0	0.93324
266.2	0.95059
266.4	0.94204
266.6	0.9255
266.8	0.92151
267.0	0.93204
267.2	0.92144
267.4	0.9262
267.6	0.91624
267.8	0.9275
268.0	0.91591
268.2	0.91151
268.4	0.91157
268.6	0.92277
268.8	0.91137
269.0	0.91718
269.2	0.90896
269.4	0.92468
269.6	0.92268
269.8	0.91655
270.0	0.93387
270.2	0.9324
270.4	0.94041
270.6	0.92555
270.8	0.919
271.0	0.9318
271.2	0.92871
271.4	0.92154
271.6	0.92765
271.8	0.92635
272.0	0.92471
272.2	0.93405
272.4	0.91519
272.6	0.92624
272.8	0.93117
273.0	0.9381
273.2	0.93807
273.4	0.94473
273.6	0.94074
273.8	0.94501
274.0	0.94462
274.2	0.93805
274.4	0.94
274.6	0.94898
274.8	0.9311
275.0	0.94049
275.2	0.94868
275.4	0.94004
275.6	0.93401
275.8	0.94169
276.0	0.92926
276.2	0.93105
276.4	0.93245
276.6	0.93835
276.8	0.93441
277.0	0.94816
277.2	0.9448
277.4	0.9382
277.6	0.93837
277.8	0.93385
278.0	0.92776
278.2	0.93296
278.4	0.94176
278.6	0.93881
278.8	0.931
279.0	0.94791
279.2	0.93292
279.4	0.9305
279.6	0.93975
279.8	0.93632
280.0	0.94263
280.2	0.93698
280.4	0.92567
280.6	0.94001
280.8	0.93933
281.0	0.93862
281.2	0.92864
281.4	0.94287
281.6	0.91649
281.8	0.92974
282.0	0.93113
282.2	0.92838
282.4	0.93376
282.6	0.93428
282.8	0.93796
283.0	0.93291
283.2	0.92587
283.4	0.92701
283.6	0.91841
283.8	0.92815
284.0	0.93035
284.2	0.92464
284.4	0.92237
284.6	0.92992
284.8	0.93049
285.0	0.92331
285.2	0.9368
285.4	0.93545
285.6	0.925
285.8	0.94193
286.0	0.93628
286.2	0.93924
286.4	0.94145
286.6	0.93979
286.8	0.93315
287.0	0.94288
287.2	0.9399
287.4	0.93616
287.6	0.9461
287.8	0.93449
288.0	0.92882
288.2	0.93935
288.4	0.93244
288.6	0.9444
288.8	0.94294
289.0	0.93592
289.2	0.94834
289.4	0.94408
289.6	0.95516
289.8	0.94521
290.0	0.94923
290.2	0.94678
290.4	0.94524
290.6	0.95898
290.8	0.94566
291.0	0.95974
291.2	0.96705
291.4	0.96596
291.6	0.96632
291.8	0.96078
292.0	0.96727
292.2	0.96162
292.4	0.95624
292.6	0.9552
292.8	0.95237
293.0	0.9503
293.2	0.94176
293.4	0.94015
293.6	0.93193
293.8	0.93347
294.0	0.93338
294.2	0.93552
294.4	0.93743
294.6	0.93715
294.8	0.93558
295.0	0.93629
295.2	0.94276
295.4	0.94294
295.6	0.94077
295.8	0.93498
296.0	0.94058
296.2	0.93554
296.4	0.93954
296.6	0.93698
296.8	0.93249
297.0	0.93902
297.2	0.93353
297.4	0.93681
297.6	0.93431
297.8	0.93766
298.0	0.93903
298.2	0.93751
298.4	0.94742
298.6	0.94568
298.8	0.94478
299.0	0.9496
299.2	0.94635
299.4	0.95293
299.6	0.95149
299.8	0.94924
300.0	0.94969
300.2	0.9496
300.4	0.95993
300.6	0.94331
300.8	0.94557
301.0	0.94105
301.2	0.94096
301.4	0.94704
301.6	0.94101
301.8	0.94619
302.0	0.944
302.2	0.94849
302.4	0.94864
302.6	0.94682
302.8	0.94622
303.0	0.94857
303.2	0.95169
303.4	0.95695
303.6	0.95805
303.8	0.95628
304.0	0.94967
304.2	0.95621
304.4	0.95206
304.6	0.95515
304.8	0.95356
305.0	0.95775
305.2	0.95531
305.4	0.95496
305.6	0.95765
305.8	0.95763
306.0	0.9574
306.2	0.96148
306.4	0.96125
306.6	0.96692
306.8	0.96403
307.0	0.97034
307.2	0.96544
307.4	0.96499
307.6	0.96377
307.8	0.96841
308.0	0.96741
308.2	0.96741
308.4	0.96372
308.6	0.97136
308.8	0.96569
309.0	0.96196
309.2	0.96691
309.4	0.9649
309.6	0.96085
309.8	0.96533
310.0	0.96284
310.2	0.96777
310.4	0.96039
310.6	0.96405
310.8	0.96302
311.0	0.96209
311.2	0.95333
311.4	0.95849
311.6	0.95425
311.8	0.95607
312.0	0.94987
312.2	0.95302
312.4	0.94988
312.6	0.94572
312.8	0.9439
313.0	0.94669
313.2	0.94201
313.4	0.94168
313.6	0.94336
313.8	0.94578
314.0	0.94651
314.2	0.94572
314.4	0.94953
314.6	0.94656
314.8	0.9482
315.0	0.94742
315.2	0.9491
315.4	0.94982
315.6	0.94351
315.8	0.95039
316.0	0.9508
316.2	0.94693
316.4	0.95282
316.6	0.95258
316.8	0.95348
317.0	0.95021
317.2	0.94958
317.4	0.94489
317.6	0.95036
317.8	0.95512
318.0	0.95845
318.2	0.95792
318.4	0.95929
318.6	0.95629
318.8	0.96015
319.0	0.96758
319.2	0.96308
319.4	0.96995
319.6	0.96962
319.8	0.968
320.0	0.97075
320.2	0.97285
320.4	0.97049
320.6	0.97084
320.8	0.96791
321.0	0.96632
321.2	0.95985
321.4	0.96191
321.6	0.96265
321.8	0.95926
322.0	0.95704
322.2	0.95526
322.4	0.95727
322.6	0.95596
322.8	0.95365
323.0	0.95296
323.2	0.95395
323.4	0.96078
323.6	0.9567
323.8	0.95565
324.0	0.95894
324.2	0.96048
324.4	0.9571
324.6	0.96541
324.8	0.96136
325.0	0.96108
325.2	0.95907
325.4	0.95646
325.6	0.95959
325.8	0.95881
326.0	0.95308
326.2	0.95472
326.4	0.95728
326.6	0.95736
326.8	0.95764
327.0	0.95193
327.2	0.95732
327.4	0.95612
327.6	0.95866
327.8	0.95853
328.0	0.96071
328.2	0.9625
328.4	0.96458
328.6	0.96509
328.8	0.97006
329.0	0.96833
329.2	0.97251
329.4	0.97314
329.6	0.97317
329.8	0.97421
330.0	0.97561
330.2	0.97573
330.4	0.97547
330.6	0.97138
330.8	0.96947
331.0	0.96383
331.2	0.96729
331.4	0.96417
331.6	0.96466
331.8	0.95935
332.0	0.96077
332.2	0.96099
332.4	0.96049
332.6	0.95708
332.8	0.95862
333.0	0.95598
333.2	0.9591
333.4	0.95543
333.6	0.95646
333.8	0.95618
334.0	0.9567
334.2	0.95606
334.4	0.95275
334.6	0.96004
334.8	0.95452
335.0	0.95551
335.2	0.9549
335.4	0.95422
335.6	0.95143
335.8	0.95255
336.0	0.94944
336.2	0.95344
336.4	0.95169
336.6	0.94922
336.8	0.95062
337.0	0.95243
337.2	0.95104
337.4	0.95079
337.6	0.95411
337.8	0.95465
338.0	0.95575
338.2	0.95577
338.4	0.95612
338.6	0.95608
338.8	0.95746
339.0	0.95961
339.2	0.96289
339.4	0.964
339.6	0.96359
339.8	0.96219
340.0	0.96105
340.2	0.96279
340.4	0.96184
340.6	0.96284
340.8	0.96072
341.0	0.95813
341.2	0.96191
341.4	0.96011
341.6	0.95995
341.8	0.95864
342.0	0.96103
342.2	0.96123
342.4	0.95839
342.6	0.95996
342.8	0.96125
343.0	0.96542
343.2	0.96396
343.4	0.96485
343.6	0.96352
343.8	0.9667
344.0	0.97142
344.2	0.97206
344.4	0.97258
344.6	0.97392
344.8	0.97693
345.0	0.9765
345.2	0.9775
345.4	0.97618
345.6	0.97872
345.8	0.97656
346.0	0.97822
346.2	0.98068
346.4	0.9788
346.6	0.97794
346.8	0.97835
347.0	0.97908
347.2	0.97945
347.4	0.97672
347.6	0.97858
347.8	0.97755
348.0	0.97855
348.2	0.97678
348.4	0.97901
348.6	0.9772
348.8	0.9749
349.0	0.9763
349.2	0.9772
349.4	0.97906
349.6	0.97779
349.8	0.97871
350.0	0.97464
350.2	0.9751
350.4	0.97504
350.6	0.97438
350.8	0.97429
351.0	0.97397
351.2	0.97359
351.4	0.97269
351.6	0.9714
351.8	0.97127
352.0	0.97293
352.2	0.96991
352.4	0.96724
352.6	0.96874
352.8	0.96809
353.0	0.96609
353.2	0.96811
353.4	0.96481
353.6	0.96861
353.8	0.9659
354.0	0.96442
354.2	0.96859
354.4	0.96451
354.6	0.96798
354.8	0.96659
355.0	0.96953
355.2	0.96743
355.4	0.9685
355.6	0.96893
355.8	0.96778
356.0	0.96691
356.2	0.96704
356.4	0.96309
356.6	0.96323
356.8	0.96242
357.0	0.96529
357.2	0.96177
357.4	0.96365
357.6	0.96048
357.8	0.96166
358.0	0.96111
358.2	0.96133
358.4	0.95976
358.6	0.96154
358.8	0.95948
359.0	0.96071
359.2	0.96108
359.4	0.95972
359.6	0.96054
359.8	0.95971
360.0	0.9618
360.2	0.96319
360.4	0.9655
360.6	0.96594
360.8	0.96913
361.0	0.97004
361.2	0.97237
361.4	0.97486
361.6	0.97402
361.8	0.97678
362.0	0.97434
362.2	0.97339
362.4	0.97325
362.6	0.9745
362.8	0.97446
363.0	0.97059
363.2	0.97075
363.4	0.97172
363.6	0.97038
363.8	0.96263
364.0	0.96364
364.2	0.96469
364.4	0.96158
364.6	0.95864
364.8	0.95724
365.0	0.95815
365.2	0.96266
365.4	0.96118
365.6	0.96073
365.8	0.96163
366.0	0.96117
366.2	0.96389
366.4	0.96599
366.6	0.96634
366.8	0.96658
367.0	0.96731
367.2	0.97238
367.4	0.9707
367.6	0.97225
367.8	0.97294
368.0	0.97502
368.2	0.97442
368.4	0.9764
368.6	0.97441
368.8	0.97687
369.0	0.97673
369.2	0.97398
369.4	0.97565
369.6	0.97362
369.8	0.97592
370.0	0.97514
370.2	0.97362
370.4	0.97397
370.6	0.97149
370.8	0.97247
371.0	0.97254
371.2	0.97412
371.4	0.97245
371.6	0.97179
371.8	0.97514
372.0	0.97106
372.2	0.97316
372.4	0.97205
372.6	0.97582
372.8	0.97499
373.0	0.97383
373.2	0.97366
373.4	0.975
373.6	0.97759
373.8	0.9785
374.0	0.97908
374.2	0.97852
374.4	0.97778
374.6	0.97642
374.8	0.97716
375.0	0.97478
375.2	0.97794
375.4	0.97771
375.6	0.97305
375.8	0.97386
376.0	0.97305
376.2	0.97369
376.4	0.96967
376.6	0.96985
376.8	0.96985
377.0	0.9642
377.2	0.96559
377.4	0.96339
377.6	0.96311
377.8	0.96144
378.0	0.96097
378.2	0.96059
378.4	0.96069
378.6	0.95985
378.8	0.95982
379.0	0.96182
379.2	0.96157
379.4	0.96224
379.6	0.96048
379.8	0.96341
380.0	0.96079
380.2	0.96437
380.4	0.96304
380.6	0.96358
380.8	0.96472
381.0	0.96642
381.2	0.96882
381.4	0.96844
381.6	0.96848
381.8	0.96783
382.0	0.97033
382.2	0.97069
382.4	0.96962
382.6	0.96841
382.8	0.96868
383.0	0.96691
383.2	0.96558
383.4	0.96694
383.6	0.96424
383.8	0.96449
384.0	0.96368
384.2	0.96258
384.4	0.96422
384.6	0.96469
384.8	0.96324
385.0	0.9619
385.2	0.96335
385.4	0.96249
385.6	0.96325
385.8	0.9627
386.0	0.96689
386.2	0.96659
386.4	0.96814
386.6	0.9667
386.8	0.96777
387.0	0.96902
387.2	0.96909
387.4	0.9711
387.6	0.97269
387.8	0.97377
388.0	0.97448
388.2	0.972
388.4	0.97458
388.6	0.97718
388.8	0.97592
389.0	0.97624
389.2	0.97227
389.4	0.97324
389.6	0.97494
389.8	0.97345
390.0	0.97412
390.2	0.9698
390.4	0.96956
390.6	0.96801
390.8	0.96586
391.0	0.96769
391.2	0.96407
391.4	0.96556
391.6	0.96464
391.8	0.96193
392.0	0.96101
392.2	0.95765
392.4	0.95854
392.6	0.95612
392.8	0.95507
393.0	0.95474
393.2	0.95422
393.4	0.95316
393.6	0.95173
393.8	0.95226
394.0	0.95317
394.2	0.95461
394.4	0.95441
394.6	0.95544
394.8	0.95431
395.0	0.95513
395.2	0.95783
395.4	0.95502
395.6	0.95705
395.8	0.95998
396.0	0.95834
396.2	0.96137
396.4	0.96003
396.6	0.96084
396.8	0.96191
397.0	0.963
397.2	0.95985
397.4	0.95958
397.6	0.96216
397.8	0.96264
398.0	0.96312
398.2	0.96398
398.4	0.96311
398.6	0.96205
398.8	0.96151
399.0	0.96415
399.2	0.96181
399.4	0.96042
399.6	0.96425
399.8	0.96322
400.0	0.96244
400.2	0.96431
400.4	0.96667
400.6	0.96623
400.8	0.96576
401.0	0.96482
401.2	0.9667
401.4	0.96732
401.6	0.96693
401.8	0.96705
402.0	0.97032
402.2	0.96889
402.4	0.96945
402.6	0.97127
402.8	0.97272
403.0	0.97338
403.2	0.97363
403.4	0.97542
403.6	0.97782
403.8	0.97715
404.0	0.97738
404.2	0.97892
404.4	0.97776
404.6	0.97819
404.8	0.97575
405.0	0.97601
405.2	0.97804
405.4	0.97714
405.6	0.97675
405.8	0.97692
406.0	0.9736
406.2	0.97639
406.4	0.97386
406.6	0.97328
406.8	0.974
407.0	0.97318
407.2	0.97485
407.4	0.97165
407.6	0.97018
407.8	0.97336
408.0	0.97541
408.2	0.97422
408.4	0.97264
408.6	0.9719
408.8	0.97097
409.0	0.97292
409.2	0.97429
409.4	0.97174
409.6	0.97013
409.8	0.97122
410.0	0.97413
410.2	0.97342
410.4	0.97236
410.6	0.97236
410.8	0.97333
411.0	0.97159
411.2	0.97013
411.4	0.96942
411.6	0.97095
411.8	0.9707
412.0	0.96979
412.2	0.96883
412.4	0.96659
412.6	0.96327
412.8	0.96431
413.0	0.9642
413.2	0.96265
413.4	0.96011
413.6	0.96128
413.8	0.96084
414.0	0.961
414.2	0.96012
414.4	0.95986
414.6	0.95749
414.8	0.95769
415.0	0.9576
415.2	0.95676
415.4	0.95353
415.6	0.95332
415.8	0.95419
416.0	0.95121
416.2	0.95406
416.4	0.95466
416.6	0.95325
416.8	0.95544
417.0	0.95481
417.2	0.95302
417.4	0.95407
417.6	0.95417
417.8	0.95415
418.0	0.95427
418.2	0.95565
418.4	0.95704
418.6	0.95819
418.8	0.95739
419.0	0.96049
419.2	0.96012
419.4	0.96056
419.6	0.96029
419.8	0.96039
420.0	0.9599
420.2	0.96105
420.4	0.95896
420.6	0.95689
420.8	0.95814
421.0	0.95862
421.2	0.95785
421.4	0.95858
421.6	0.9591
421.8	0.95629
422.0	0.95791
422.2	0.95739
422.4	0.9569
422.6	0.95598
422.8	0.95507
423.0	0.95571
423.2	0.9549
423.4	0.95549
423.6	0.95457
423.8	0.95692
424.0	0.95464
424.2	0.95402
424.4	0.95473
424.6	0.95258
424.8	0.95398
425.0	0.95401
425.2	0.95418
425.4	0.9551
425.6	0.95634
425.8	0.95749
426.0	0.95704
426.2	0.95755
426.4	0.95767
426.6	0.96081
426.8	0.96041
427.0	0.95947
427.2	0.96043
427.4	0.9624
427.6	0.96464
427.8	0.96396
428.0	0.96423
428.2	0.9651
428.4	0.9647
428.6	0.96674
428.8	0.96773
429.0	0.96955
429.2	0.96622
429.4	0.96594
429.6	0.96672
429.8	0.96782
430.0	0.96719
430.2	0.96889
430.4	0.96727
430.6	0.9673
430.8	0.96531
431.0	0.96544
431.2	0.96445
431.4	0.96438
431.6	0.96448
431.8	0.96355
432.0	0.96244
432.2	0.9622
432.4	0.96151
432.6	0.96138
432.8	0.96029
433.0	0.96024
433.2	0.96163
433.4	0.96235
433.6	0.96238
433.8	0.9632
434.0	0.96322
434.2	0.96393
434.4	0.96339
434.6	0.96282
434.8	0.9611
435.0	0.96318
435.2	0.96509
435.4	0.96384
435.6	0.9658
435.8	0.96535
436.0	0.96581
436.2	0.96741
436.4	0.9677
436.6	0.96842
436.8	0.96948
437.0	0.96992
437.2	0.9726
437.4	0.97403
437.6	0.974
437.8	0.97347
438.0	0.9743
438.2	0.97595
438.4	0.97486
438.6	0.97382
438.8	0.973
439.0	0.97438
439.2	0.97415
439.4	0.97419
439.6	0.97431
439.8	0.97346
440.0	0.97564
440.2	0.97316
440.4	0.97363
440.6	0.97567
440.8	0.97451
441.0	0.97297
441.2	0.97372
441.4	0.97381
441.6	0.97306
441.8	0.97318
442.0	0.97256
442.2	0.97127
442.4	0.97151
442.6	0.97342
442.8	0.97202
443.0	0.97189
443.2	0.97235
443.4	0.97231
443.6	0.97249
443.8	0.97437
444.0	0.97515
444.2	0.97562
444.4	0.97436
444.6	0.9739
444.8	0.97476
445.0	0.97539
445.2	0.97741
445.4	0.97881
445.6	0.9786
445.8	0.97861
446.0	0.98007
446.2	0.97936
446.4	0.98056
446.6	0.98085
446.8	0.98139
447.0	0.98151
447.2	0.9814
447.4	0.98253
447.6	0.98099
447.8	0.98061
448.0	0.97949
448.2	0.97944
448.4	0.97862
448.6	0.97855
448.8	0.97916
449.0	0.98029
449.2	0.98151
449.4	0.97958
449.6	0.97779
449.8	0.97623
450.0	0.97527
450.2	0.97377
450.4	0.97357
450.6	0.97363
450.8	0.9705
451.0	0.96783
451.2	0.96845
451.4	0.96756
451.6	0.96853
451.8	0.96724
452.0	0.96451
452.2	0.96382
452.4	0.96353
452.6	0.96316
452.8	0.965
453.0	0.96356
453.2	0.96421
453.4	0.96434
453.6	0.96575
453.8	0.96568
454.0	0.96403
454.2	0.96253
454.4	0.96447
454.6	0.9643
454.8	0.9643
455.0	0.96479
455.2	0.96552
455.4	0.9648
455.6	0.96626
455.8	0.96631
456.0	0.96508
456.2	0.96566
456.4	0.967
456.6	0.96789
456.8	0.96878
457.0	0.96891
457.2	0.96947
457.4	0.97078
457.6	0.97107
457.8	0.9691
458.0	0.96824
458.2	0.96871
458.4	0.96871
458.6	0.96698
458.8	0.96365
459.0	0.96441
459.2	0.96455
459.4	0.96216
459.6	0.96144
459.8	0.96102
460.0	0.95956
460.2	0.95875
460.4	0.95702
460.6	0.95474
460.8	0.95306
461.0	0.9521
461.2	0.95221
461.4	0.95041
461.6	0.94987
461.8	0.94777
462.0	0.94854
462.2	0.94815
462.4	0.94531
462.6	0.94612
462.8	0.945
463.0	0.94532
463.2	0.94493
463.4	0.94189
463.6	0.94271
463.8	0.94229
464.0	0.94117
464.2	0.94153
464.4	0.94195
464.6	0.94241
464.8	0.94131
465.0	0.94135
465.2	0.94131
465.4	0.94233
465.6	0.94081
465.8	0.94171
466.0	0.94248
466.2	0.94422
466.4	0.94548
466.6	0.94551
466.8	0.94604
467.0	0.94735
467.2	0.94578
467.4	0.94565
467.6	0.94744
467.8	0.9479
468.0	0.94831
468.2	0.94867
468.4	0.95088
468.6	0.94962
468.8	0.94871
469.0	0.95003
469.2	0.949
469.4	0.94858
469.6	0.94986
469.8	0.94979
470.0	0.95015
470.2	0.9502
470.4	0.95183
470.6	0.95047
470.8	0.95086
471.0	0.94937
471.2	0.94886
471.4	0.94776
471.6	0.94624
471.8	0.94723
472.0	0.94748
472.2	0.94663
472.4	0.94661
472.6	0.94721
472.8	0.94532
473.0	0.94451
473.2	0.94533
473.4	0.94732
473.6	0.94642
473.8	0.94761
474.0	0.94757
474.2	0.94836
474.4	0.95046
474.6	0.95077
474.8	0.95089
475.0	0.95101
475.2	0.95093
475.4	0.95225
475.6	0.95234
475.8	0.9544
476.0	0.95419
476.2	0.95307
476.4	0.95412
476.6	0.95495
476.8	0.9564
477.0	0.9585
477.2	0.95875
477.4	0.95983
477.6	0.9601
477.8	0.96105
478.0	0.96305
478.2	0.96346
478.4	0.96358
478.6	0.96451
478.8	0.96674
479.0	0.96842
479.2	0.96659
479.4	0.96748
479.6	0.96772
479.8	0.97
480.0	0.97047
480.2	0.97127
480.4	0.97298
480.6	0.97361
480.8	0.97327
481.0	0.9744
481.2	0.97389
481.4	0.97282
481.6	0.97466
481.8	0.9744
482.0	0.97314
482.2	0.97267
482.4	0.97199
482.6	0.97303
482.8	0.97359
483.0	0.97333
483.2	0.97274
483.4	0.97479
483.6	0.97456
483.8	0.97483
484.0	0.97445
484.2	0.97279
484.4	0.9712
484.6	0.97031
484.8	0.96997
485.0	0.96986
485.2	0.97083
485.4	0.97109
485.6	0.9695
485.8	0.96941
486.0	0.96996
486.2	0.97063
486.4	0.97205
486.6	0.97118
486.8	0.97317
487.0	0.97274
487.2	0.97158
487.4	0.97181
487.6	0.97175
487.8	0.97278
488.0	0.97169
488.2	0.97293
488.4	0.97415
488.6	0.97356
488.8	0.97434
489.0	0.97424
489.2	0.97493
489.4	0.97717
489.6	0.97663
489.8	0.97676
490.0	0.97735
490.2	0.97608
490.4	0.97599
490.6	0.97485
490.8	0.97518
491.0	0.97587
491.2	0.97738
491.4	0.97578
491.6	0.97722
491.8	0.97778
492.0	0.97735
492.2	0.97693
492.4	0.97715
492.6	0.97807
492.8	0.97587
493.0	0.97538
493.2	0.97365
493.4	0.97375
493.6	0.97425
493.8	0.97491
494.0	0.97415
494.2	0.97431
494.4	0.97432
494.6	0.97197
494.8	0.97366
495.0	0.97363
495.2	0.97414
495.4	0.97143
495.6	0.9712
495.8	0.97066
496.0	0.97108
496.2	0.96995
496.4	0.96946
496.6	0.97013
496.8	0.96949
497.0	0.96889
497.2	0.96701
497.4	0.96624
497.6	0.96801
497.8	0.96817
498.0	0.96911
498.2	0.96806
498.4	0.96648
498.6	0.96837
